#
#"Frequency / GHz"	"Z1 [Real Part] - Impedance / Ohm"
#----------------------------------------------------
5.0000000000000	50.984638214111
5.0050000000000	50.984889984131
5.0100000000000	50.985145568848
5.0150000000000	50.985401153564
5.0200000000000	50.985656738281
5.0250000000000	50.985912322998
5.0300000000000	50.986167907715
5.0350000000000	50.986427307129
5.0400000000000	50.986682891846
5.0450000000000	50.986942291260
5.0500000000000	50.987201690674
5.0550000000000	50.987457275391
5.0600000000000	50.987716674805
5.0650000000000	50.987976074219
5.0700000000000	50.988239288330
5.0750000000000	50.988498687744
5.0800000000000	50.988758087158
5.0850000000000	50.989021301270
5.0900000000000	50.989280700684
5.0950000000000	50.989543914795
5.1000000000000	50.989807128906
5.1050000000000	50.990070343018
5.1100000000000	50.990333557129
5.1150000000000	50.990600585938
5.1200000000000	50.990863800049
5.1250000000000	50.991127014160
5.1300000000000	50.991394042969
5.1350000000000	50.991661071777
5.1400000000000	50.991924285889
5.1450000000000	50.992191314697
5.1500000000000	50.992458343506
5.1550000000000	50.992729187012
5.1600000000000	50.992996215820
5.1650000000000	50.993263244629
5.1700000000000	50.993534088135
5.1750000000000	50.993804931641
5.1800000000000	50.994071960449
5.1850000000000	50.994342803955
5.1900000000000	50.994613647461
5.1950000000000	50.994884490967
5.2000000000000	50.995159149170
5.2050000000000	50.995429992676
5.2100000000000	50.995700836182
5.2150000000000	50.995975494385
5.2200000000000	50.996250152588
5.2250000000000	50.996524810791
5.2300000000000	50.996799468994
5.2350000000000	50.997074127197
5.2400000000000	50.997348785400
5.2450000000000	50.997623443604
5.2500000000000	50.997901916504
5.2550000000000	50.998176574707
5.2600000000000	50.998455047607
5.2650000000000	50.998733520508
5.2700000000000	50.999011993408
5.2750000000000	50.999290466309
5.2800000000000	50.999568939209
5.2850000000000	50.999847412109
5.2900000000000	51.000125885010
5.2950000000000	51.000408172607
5.3000000000000	51.000686645508
5.3050000000000	51.000968933105
5.3100000000000	51.001251220703
5.3150000000000	51.001533508301
5.3200000000000	51.001815795898
5.3250000000000	51.002098083496
5.3300000000000	51.002384185791
5.3350000000000	51.002666473389
5.3400000000000	51.002952575684
5.3450000000000	51.003234863281
5.3500000000000	51.003520965576
5.3550000000000	51.003807067871
5.3600000000000	51.004093170166
5.3650000000000	51.004379272461
5.3700000000000	51.004669189453
5.3750000000000	51.004955291748
5.3800000000000	51.005241394043
5.3850000000000	51.005531311035
5.3900000000000	51.005821228027
5.3950000000000	51.006111145020
5.4000000000000	51.006401062012
5.4050000000000	51.006690979004
5.4100000000000	51.006980895996
5.4150000000000	51.007270812988
5.4200000000000	51.007564544678
5.4250000000000	51.007858276367
5.4300000000000	51.008148193359
5.4350000000000	51.008441925049
5.4400000000000	51.008735656738
5.4450000000000	51.009029388428
5.4500000000000	51.009323120117
5.4550000000000	51.009620666504
5.4600000000000	51.009914398193
5.4650000000000	51.010211944580
5.4700000000000	51.010505676270
5.4750000000000	51.010803222656
5.4800000000000	51.011100769043
5.4850000000000	51.011398315430
5.4900000000000	51.011695861816
5.4950000000000	51.011993408203
5.5000000000000	51.012294769287
5.5050000000000	51.012592315674
5.5100000000000	51.012893676758
5.5150000000000	51.013195037842
5.5200000000000	51.013492584229
5.5250000000000	51.013793945312
5.5300000000000	51.014099121094
5.5350000000000	51.014400482178
5.5400000000000	51.014701843262
5.5450000000000	51.015007019043
5.5500000000000	51.015308380127
5.5550000000000	51.015613555908
5.5600000000000	51.015918731689
5.5650000000000	51.016223907471
5.5700000000000	51.016529083252
5.5750000000000	51.016834259033
5.5800000000000	51.017139434814
5.5850000000000	51.017448425293
5.5900000000000	51.017753601074
5.5950000000000	51.018062591553
5.6000000000000	51.018371582031
5.6050000000000	51.018680572510
5.6100000000000	51.018989562988
5.6150000000000	51.019298553467
5.6200000000000	51.019607543945
5.6250000000000	51.019916534424
5.6300000000000	51.020229339600
5.6350000000000	51.020538330078
5.6400000000000	51.020851135254
5.6450000000000	51.021163940430
5.6500000000000	51.021476745605
5.6550000000000	51.021789550781
5.6600000000000	51.022102355957
5.6650000000000	51.022418975830
5.6700000000000	51.022731781006
5.6750000000000	51.023048400879
5.6800000000000	51.023361206055
5.6850000000000	51.023677825928
5.6900000000000	51.023994445801
5.6950000000000	51.024311065674
5.7000000000000	51.024627685547
5.7050000000000	51.024948120117
5.7100000000000	51.025264739990
5.7150000000000	51.025585174561
5.7200000000000	51.025901794434
5.7250000000000	51.026222229004
5.7300000000000	51.026542663574
5.7350000000000	51.026863098145
5.7400000000000	51.027183532715
5.7450000000000	51.027507781982
5.7500000000000	51.027828216553
5.7550000000000	51.028148651123
5.7600000000000	51.028472900391
5.7650000000000	51.028797149658
5.7700000000000	51.029121398926
5.7750000000000	51.029445648193
5.7800000000000	51.029769897461
5.7850000000000	51.030094146729
5.7900000000000	51.030418395996
5.7950000000000	51.030746459961
5.8000000000000	51.031074523926
5.8050000000000	51.031398773193
5.8100000000000	51.031726837158
5.8150000000000	51.032054901123
5.8200000000000	51.032382965088
5.8250000000000	51.032711029053
5.8300000000000	51.033042907715
5.8350000000000	51.033370971680
5.8400000000000	51.033702850342
5.8450000000000	51.034030914307
5.8500000000000	51.034362792969
5.8550000000000	51.034694671631
5.8600000000000	51.035026550293
5.8650000000000	51.035358428955
5.8700000000000	51.035694122314
5.8750000000000	51.036026000977
5.8800000000000	51.036361694336
5.8850000000000	51.036693572998
5.8900000000000	51.037029266357
5.8950000000000	51.037364959717
5.9000000000000	51.037700653076
5.9050000000000	51.038036346436
5.9100000000000	51.038372039795
5.9150000000000	51.038711547852
5.9200000000000	51.039047241211
5.9250000000000	51.039386749268
5.9300000000000	51.039726257324
5.9350000000000	51.040061950684
5.9400000000000	51.040401458740
5.9450000000000	51.040740966797
5.9500000000000	51.041084289551
5.9550000000000	51.041423797607
5.9600000000000	51.041767120361
5.9650000000000	51.042106628418
5.9700000000000	51.042449951172
5.9750000000000	51.042793273926
5.9800000000000	51.043136596680
5.9850000000000	51.043479919434
5.9900000000000	51.043823242188
5.9950000000000	51.044166564941
6.0000000000000	51.044513702393
6.0050000000000	51.044857025146
6.0100000000000	51.045204162598
6.0150000000000	51.045551300049
6.0200000000000	51.045898437500
6.0250000000000	51.046245574951
6.0300000000000	51.046592712402
6.0350000000000	51.046939849854
6.0400000000000	51.047290802002
6.0450000000000	51.047637939453
6.0500000000000	51.047988891602
6.0550000000000	51.048339843750
6.0600000000000	51.048686981201
6.0650000000000	51.049041748047
6.0700000000000	51.049392700195
6.0750000000000	51.049743652344
6.0800000000000	51.050094604492
6.0850000000000	51.050449371338
6.0900000000000	51.050800323486
6.0950000000000	51.051155090332
6.1000000000000	51.051509857178
6.1050000000000	51.051864624023
6.1100000000000	51.052219390869
6.1150000000000	51.052574157715
6.1200000000000	51.052932739258
6.1250000000000	51.053287506104
6.1300000000000	51.053646087646
6.1350000000000	51.054004669189
6.1400000000000	51.054359436035
6.1450000000000	51.054718017578
6.1500000000000	51.055080413818
6.1550000000000	51.055438995361
6.1600000000000	51.055797576904
6.1650000000000	51.056159973145
6.1700000000000	51.056518554688
6.1750000000000	51.056880950928
6.1800000000000	51.057243347168
6.1850000000000	51.057605743408
6.1900000000000	51.057968139648
6.1950000000000	51.058330535889
6.2000000000000	51.058692932129
6.2050000000000	51.059059143066
6.2100000000000	51.059421539307
6.2150000000000	51.059787750244
6.2200000000000	51.060153961182
6.2250000000000	51.060520172119
6.2300000000000	51.060886383057
6.2350000000000	51.061252593994
6.2400000000000	51.061618804932
6.2450000000000	51.061988830566
6.2500000000000	51.062355041504
6.2550000000000	51.062725067139
6.2600000000000	51.063095092773
6.2650000000000	51.063461303711
6.2700000000000	51.063831329346
6.2750000000000	51.064205169678
6.2800000000000	51.064575195312
6.2850000000000	51.064945220947
6.2900000000000	51.065319061279
6.2950000000000	51.065689086914
6.3000000000000	51.066062927246
6.3050000000000	51.066436767578
6.3100000000000	51.066810607910
6.3150000000000	51.067184448242
6.3200000000000	51.067558288574
6.3250000000000	51.067935943604
6.3300000000000	51.068309783936
6.3350000000000	51.068687438965
6.3400000000000	51.069065093994
6.3450000000000	51.069438934326
6.3500000000000	51.069816589355
6.3550000000000	51.070198059082
6.3600000000000	51.070575714111
6.3650000000000	51.070953369141
6.3700000000000	51.071334838867
6.3750000000000	51.071712493896
6.3800000000000	51.072093963623
6.3850000000000	51.072475433350
6.3900000000000	51.072856903076
6.3950000000000	51.073238372803
6.4000000000000	51.073619842529
6.4050000000000	51.074001312256
6.4100000000000	51.074386596680
6.4150000000000	51.074768066406
6.4200000000000	51.075153350830
6.4250000000000	51.075538635254
6.4300000000000	51.075923919678
6.4350000000000	51.076309204102
6.4400000000000	51.076694488525
6.4450000000000	51.077079772949
6.4500000000000	51.077468872070
6.4550000000000	51.077854156494
6.4600000000000	51.078243255615
6.4650000000000	51.078632354736
6.4700000000000	51.079021453857
6.4750000000000	51.079410552979
6.4800000000000	51.079799652100
6.4850000000000	51.080188751221
6.4900000000000	51.080581665039
6.4950000000000	51.080970764160
6.5000000000000	51.081363677979
6.5050000000000	51.081756591797
6.5100000000000	51.082149505615
6.5150000000000	51.082542419434
6.5200000000000	51.082935333252
6.5250000000000	51.083328247070
6.5300000000000	51.083721160889
6.5350000000000	51.084117889404
6.5400000000000	51.084514617920
6.5450000000000	51.084907531738
6.5500000000000	51.085304260254
6.5550000000000	51.085700988770
6.5600000000000	51.086097717285
6.5650000000000	51.086498260498
6.5700000000000	51.086894989014
6.5750000000000	51.087291717529
6.5800000000000	51.087692260742
6.5850000000000	51.088092803955
6.5900000000000	51.088493347168
6.5950000000000	51.088893890381
6.6000000000000	51.089294433594
6.6050000000000	51.089694976807
6.6100000000000	51.090095520020
6.6150000000000	51.090499877930
6.6200000000000	51.090900421143
6.6250000000000	51.091304779053
6.6300000000000	51.091709136963
6.6350000000000	51.092113494873
6.6400000000000	51.092517852783
6.6450000000000	51.092922210693
6.6500000000000	51.093330383301
6.6550000000000	51.093734741211
6.6600000000000	51.094142913818
6.6650000000000	51.094547271729
6.6700000000000	51.094955444336
6.6750000000000	51.095363616943
6.6800000000000	51.095771789551
6.6850000000000	51.096183776855
6.6900000000000	51.096591949463
6.6950000000000	51.097000122070
6.7000000000000	51.097412109375
6.7050000000000	51.097824096680
6.7100000000000	51.098232269287
6.7150000000000	51.098644256592
6.7200000000000	51.099056243896
6.7250000000000	51.099472045898
6.7300000000000	51.099884033203
6.7350000000000	51.100296020508
6.7400000000000	51.100711822510
6.7450000000000	51.101127624512
6.7500000000000	51.101539611816
6.7550000000000	51.101955413818
6.7600000000000	51.102371215820
6.7650000000000	51.102790832520
6.7700000000000	51.103206634521
6.7750000000000	51.103622436523
6.7800000000000	51.104042053223
6.7850000000000	51.104461669922
6.7900000000000	51.104877471924
6.7950000000000	51.105297088623
6.8000000000000	51.105716705322
6.8050000000000	51.106140136719
6.8100000000000	51.106559753418
6.8150000000000	51.106979370117
6.8200000000000	51.107402801514
6.8250000000000	51.107822418213
6.8300000000000	51.108245849609
6.8350000000000	51.108669281006
6.8400000000000	51.109092712402
6.8450000000000	51.109516143799
6.8500000000000	51.109943389893
6.8550000000000	51.110366821289
6.8600000000000	51.110790252686
6.8650000000000	51.111217498779
6.8700000000000	51.111644744873
6.8750000000000	51.112071990967
6.8800000000000	51.112499237061
6.8850000000000	51.112926483154
6.8900000000000	51.113353729248
6.8950000000000	51.113784790039
6.9000000000000	51.114212036133
6.9050000000000	51.114643096924
6.9100000000000	51.115070343018
6.9150000000000	51.115501403809
6.9200000000000	51.115932464600
6.9250000000000	51.116363525391
6.9300000000000	51.116798400879
6.9350000000000	51.117229461670
6.9400000000000	51.117664337158
6.9450000000000	51.118095397949
6.9500000000000	51.118530273438
6.9550000000000	51.118965148926
6.9600000000000	51.119400024414
6.9650000000000	51.119834899902
6.9700000000000	51.120269775391
6.9750000000000	51.120704650879
6.9800000000000	51.121143341064
6.9850000000000	51.121582031250
6.9900000000000	51.122016906738
6.9950000000000	51.122455596924
7.0000000000000	51.122894287109
7.0050000000000	51.123332977295
7.0100000000000	51.123771667480
7.0150000000000	51.124214172363
7.0200000000000	51.124652862549
7.0250000000000	51.125095367432
7.0300000000000	51.125537872314
7.0350000000000	51.125976562500
7.0400000000000	51.126419067383
7.0450000000000	51.126861572266
7.0500000000000	51.127307891846
7.0550000000000	51.127750396729
7.0600000000000	51.128192901611
7.0650000000000	51.128639221191
7.0700000000000	51.129085540771
7.0750000000000	51.129531860352
7.0800000000000	51.129978179932
7.0850000000000	51.130424499512
7.0900000000000	51.130870819092
7.0950000000000	51.131317138672
7.1000000000000	51.131767272949
7.1050000000000	51.132213592529
7.1100000000000	51.132663726807
7.1150000000000	51.133113861084
7.1200000000000	51.133563995361
7.1250000000000	51.134014129639
7.1300000000000	51.134464263916
7.1350000000000	51.134914398193
7.1400000000000	51.135368347168
7.1450000000000	51.135818481445
7.1500000000000	51.136272430420
7.1550000000000	51.136726379395
7.1600000000000	51.137180328369
7.1650000000000	51.137634277344
7.1700000000000	51.138088226318
7.1750000000000	51.138542175293
7.1800000000000	51.138999938965
7.1850000000000	51.139453887939
7.1900000000000	51.139911651611
7.1950000000000	51.140369415283
7.2000000000000	51.140827178955
7.2050000000000	51.141284942627
7.2100000000000	51.141742706299
7.2150000000000	51.142200469971
7.2200000000000	51.142658233643
7.2250000000000	51.143119812012
7.2300000000000	51.143581390381
7.2350000000000	51.144039154053
7.2400000000000	51.144500732422
7.2450000000000	51.144962310791
7.2500000000000	51.145427703857
7.2550000000000	51.145889282227
7.2600000000000	51.146350860596
7.2650000000000	51.146816253662
7.2700000000000	51.147277832031
7.2750000000000	51.147743225098
7.2800000000000	51.148208618164
7.2850000000000	51.148674011230
7.2900000000000	51.149139404297
7.2950000000000	51.149608612061
7.3000000000000	51.150074005127
7.3050000000000	51.150539398193
7.3100000000000	51.151008605957
7.3150000000000	51.151477813721
7.3200000000000	51.151947021484
7.3250000000000	51.152416229248
7.3300000000000	51.152885437012
7.3350000000000	51.153354644775
7.3400000000000	51.153827667236
7.3450000000000	51.154296875000
7.3500000000000	51.154769897461
7.3550000000000	51.155239105225
7.3600000000000	51.155712127686
7.3650000000000	51.156185150146
7.3700000000000	51.156658172607
7.3750000000000	51.157135009766
7.3800000000000	51.157608032227
7.3850000000000	51.158084869385
7.3900000000000	51.158557891846
7.3950000000000	51.159034729004
7.4000000000000	51.159511566162
7.4050000000000	51.159988403320
7.4100000000000	51.160465240479
7.4150000000000	51.160942077637
7.4200000000000	51.161422729492
7.4250000000000	51.161899566650
7.4300000000000	51.162380218506
7.4350000000000	51.162857055664
7.4400000000000	51.163337707520
7.4450000000000	51.163818359375
7.4500000000000	51.164299011230
7.4550000000000	51.164783477783
7.4600000000000	51.165264129639
7.4650000000000	51.165744781494
7.4700000000000	51.166229248047
7.4750000000000	51.166713714600
7.4800000000000	51.167198181152
7.4850000000000	51.167682647705
7.4900000000000	51.168167114258
7.4950000000000	51.168651580811
7.5000000000000	51.169136047363
7.5050000000000	51.169624328613
7.5100000000000	51.170108795166
7.5150000000000	51.170597076416
7.5200000000000	51.171085357666
7.5250000000000	51.171573638916
7.5300000000000	51.172061920166
7.5350000000000	51.172550201416
7.5400000000000	51.173038482666
7.5450000000000	51.173530578613
7.5500000000000	51.174022674561
7.5550000000000	51.174510955811
7.5600000000000	51.175003051758
7.5650000000000	51.175495147705
7.5700000000000	51.175987243652
7.5750000000000	51.176479339600
7.5800000000000	51.176975250244
7.5850000000000	51.177467346191
7.5900000000000	51.177963256836
7.5950000000000	51.178455352783
7.6000000000000	51.178951263428
7.6050000000000	51.179447174072
7.6100000000000	51.179943084717
7.6150000000000	51.180438995361
7.6200000000000	51.180938720703
7.6250000000000	51.181434631348
7.6300000000000	51.181934356689
7.6350000000000	51.182430267334
7.6400000000000	51.182929992676
7.6450000000000	51.183429718018
7.6500000000000	51.183929443359
7.6550000000000	51.184429168701
7.6600000000000	51.184932708740
7.6650000000000	51.185432434082
7.6700000000000	51.185935974121
7.6750000000000	51.186435699463
7.6800000000000	51.186939239502
7.6850000000000	51.187442779541
7.6900000000000	51.187946319580
7.6950000000000	51.188449859619
7.7000000000000	51.188957214355
7.7050000000000	51.189460754395
7.7100000000000	51.189968109131
7.7150000000000	51.190471649170
7.7200000000000	51.190979003906
7.7250000000000	51.191486358643
7.7300000000000	51.191993713379
7.7350000000000	51.192501068115
7.7400000000000	51.193008422852
7.7450000000000	51.193519592285
7.7500000000000	51.194026947021
7.7550000000000	51.194538116455
7.7600000000000	51.195049285889
7.7650000000000	51.195560455322
7.7700000000000	51.196071624756
7.7750000000000	51.196582794189
7.7800000000000	51.197093963623
7.7850000000000	51.197605133057
7.7900000000000	51.198120117188
7.7950000000000	51.198635101318
7.8000000000000	51.199146270752
7.8050000000000	51.199661254883
7.8100000000000	51.200176239014
7.8150000000000	51.200691223145
7.8200000000000	51.201210021973
7.8250000000000	51.201725006104
7.8300000000000	51.202243804932
7.8350000000000	51.202758789062
7.8400000000000	51.203277587891
7.8450000000000	51.203796386719
7.8500000000000	51.204315185547
7.8550000000000	51.204833984375
7.8600000000000	51.205352783203
7.8650000000000	51.205875396729
7.8700000000000	51.206394195557
7.8750000000000	51.206916809082
7.8800000000000	51.207439422607
7.8850000000000	51.207958221436
7.8900000000000	51.208480834961
7.8950000000000	51.209007263184
7.9000000000000	51.209529876709
7.9050000000000	51.210052490234
7.9100000000000	51.210578918457
7.9150000000000	51.211101531982
7.9200000000000	51.211627960205
7.9250000000000	51.212154388428
7.9300000000000	51.212680816650
7.9350000000000	51.213207244873
7.9400000000000	51.213733673096
7.9450000000000	51.214263916016
7.9500000000000	51.214790344238
7.9550000000000	51.215320587158
7.9600000000000	51.215847015381
7.9650000000000	51.216377258301
7.9700000000000	51.216907501221
7.9750000000000	51.217437744141
7.9800000000000	51.217967987061
7.9850000000000	51.218502044678
7.9900000000000	51.219032287598
7.9950000000000	51.219566345215
8.0000000000000	51.220100402832
8.0050000000000	51.220630645752
8.0100000000000	51.221164703369
8.0150000000000	51.221698760986
8.0200000000000	51.222236633301
8.0250000000000	51.222770690918
8.0300000000000	51.223304748535
8.0350000000000	51.223842620850
8.0400000000000	51.224380493164
8.0450000000000	51.224918365479
8.0500000000000	51.225456237793
8.0550000000000	51.225994110107
8.0600000000000	51.226531982422
8.0650000000000	51.227069854736
8.0700000000000	51.227611541748
8.0750000000000	51.228149414062
8.0800000000000	51.228691101074
8.0850000000000	51.229232788086
8.0900000000000	51.229774475098
8.0950000000000	51.230316162109
8.1000000000000	51.230857849121
